
 
C1    N2    Elastic                                             
E/N (Td)	Rate coefficient (m3/s)
1.000	0.2192E-13
1.007	0.2198E-13
1.027	0.2215E-13
1.060	0.2243E-13
1.107	0.2281E-13
1.168	0.2330E-13
1.242	0.2389E-13
1.329	0.2458E-13
1.430	0.2537E-13
1.544	0.2626E-13
1.671	0.2726E-13
1.812	0.2837E-13
1.966	0.2959E-13
2.134	0.3092E-13
2.315	0.3237E-13
2.510	0.3391E-13
2.718	0.3552E-13
2.940	0.3718E-13
3.174	0.3886E-13
3.423	0.4053E-13
3.685	0.4218E-13
3.960	0.4377E-13
4.248	0.4530E-13
4.550	0.4675E-13
4.866	0.4813E-13
5.195	0.4942E-13
5.537	0.5065E-13
5.893	0.5177E-13
6.262	0.5282E-13
6.644	0.5380E-13
7.040	0.5470E-13
7.450	0.5555E-13
7.872	0.5633E-13
8.309	0.5706E-13
8.758	0.5775E-13
9.221	0.5838E-13
9.698	0.5896E-13
10.19	0.5952E-13
10.69	0.6005E-13
11.21	0.6054E-13
11.74	0.6101E-13
12.28	0.6145E-13
12.84	0.6188E-13
13.41	0.6228E-13
13.99	0.6265E-13
14.59	0.6302E-13
15.20	0.6336E-13
15.83	0.6369E-13
16.46	0.6404E-13
17.11	0.6435E-13
17.78	0.6464E-13
18.46	0.6493E-13
19.15	0.6520E-13
19.85	0.6551E-13
20.57	0.6577E-13
21.30	0.6603E-13
22.05	0.6629E-13
22.81	0.6654E-13
23.58	0.6679E-13
24.36	0.6704E-13
25.16	0.6729E-13
25.97	0.6753E-13
26.80	0.6778E-13
27.64	0.6803E-13
28.49	0.6827E-13
29.36	0.6853E-13
30.23	0.6878E-13
31.13	0.6903E-13
32.03	0.6930E-13
32.95	0.6957E-13
33.89	0.6985E-13
34.83	0.7013E-13
35.79	0.7042E-13
36.77	0.7073E-13
37.75	0.7104E-13
38.75	0.7137E-13
39.77	0.7170E-13
40.79	0.7205E-13
41.83	0.7242E-13
42.89	0.7280E-13
43.95	0.7320E-13
45.03	0.7361E-13
46.13	0.7405E-13
47.23	0.7451E-13
48.36	0.7498E-13
49.49	0.7552E-13
50.64	0.7605E-13
51.80	0.7660E-13
52.97	0.7717E-13
54.16	0.7777E-13
55.36	0.7839E-13
56.58	0.7904E-13
57.81	0.7972E-13
59.05	0.8042E-13
60.30	0.8114E-13
61.57	0.8189E-13
62.85	0.8273E-13
64.15	0.8353E-13
65.46	0.8435E-13
66.78	0.8520E-13
68.11	0.8607E-13
69.46	0.8696E-13
70.83	0.8787E-13
72.20	0.8880E-13
73.59	0.8974E-13
74.99	0.9070E-13
76.41	0.9167E-13
77.84	0.9256E-13
79.28	0.9356E-13
80.74	0.9456E-13
82.21	0.9557E-13
83.69	0.9659E-13
85.19	0.9761E-13
86.70	0.9864E-13
88.22	0.9967E-13
89.76	0.1007E-12
91.31	0.1017E-12
92.87	0.1028E-12
94.45	0.1038E-12
96.04	0.1048E-12
97.64	0.1058E-12
99.26	0.1068E-12
100.9	0.1078E-12
102.5	0.1088E-12
104.2	0.1098E-12
105.9	0.1108E-12
107.6	0.1118E-12
109.2	0.1127E-12
111.0	0.1137E-12
112.7	0.1146E-12
114.4	0.1155E-12
116.2	0.1164E-12
117.9	0.1173E-12
119.7	0.1183E-12
121.5	0.1191E-12
123.3	0.1200E-12
125.1	0.1208E-12
127.0	0.1217E-12
128.8	0.1225E-12
130.7	0.1233E-12
132.5	0.1241E-12
134.4	0.1248E-12
136.3	0.1256E-12
138.2	0.1264E-12
140.2	0.1271E-12
142.1	0.1278E-12
144.1	0.1285E-12
146.0	0.1291E-12
148.0	0.1298E-12
150.0	0.1305E-12
 
 
C2    N2    Excitation    0.020 eV                              
E/N (Td)	Rate coefficient (m3/s)
1.000	0.6678E-16
1.007	0.6690E-16
1.027	0.6725E-16
1.060	0.6782E-16
1.107	0.6862E-16
1.168	0.6965E-16
1.242	0.7092E-16
1.329	0.7244E-16
1.430	0.7427E-16
1.544	0.7645E-16
1.671	0.7907E-16
1.812	0.8224E-16
1.966	0.8608E-16
2.134	0.9064E-16
2.315	0.9611E-16
2.510	0.1025E-15
2.718	0.1099E-15
2.940	0.1182E-15
3.174	0.1274E-15
3.423	0.1374E-15
3.685	0.1481E-15
3.960	0.1595E-15
4.248	0.1714E-15
4.550	0.1839E-15
4.866	0.1969E-15
5.195	0.2103E-15
5.537	0.2244E-15
5.893	0.2386E-15
6.262	0.2533E-15
6.644	0.2684E-15
7.040	0.2839E-15
7.450	0.2998E-15
7.872	0.3161E-15
8.309	0.3329E-15
8.758	0.3501E-15
9.221	0.3677E-15
9.698	0.3856E-15
10.19	0.4042E-15
10.69	0.4232E-15
11.21	0.4427E-15
11.74	0.4627E-15
12.28	0.4833E-15
12.84	0.5046E-15
13.41	0.5261E-15
13.99	0.5479E-15
14.59	0.5714E-15
15.20	0.5949E-15
15.83	0.6190E-15
16.46	0.6424E-15
17.11	0.6677E-15
17.78	0.6937E-15
18.46	0.7204E-15
19.15	0.7478E-15
19.85	0.7777E-15
20.57	0.8065E-15
21.30	0.8361E-15
22.05	0.8665E-15
22.81	0.8977E-15
23.58	0.9297E-15
24.36	0.9606E-15
25.16	0.9943E-15
25.97	0.1029E-14
26.80	0.1064E-14
27.64	0.1100E-14
28.49	0.1137E-14
29.36	0.1175E-14
30.23	0.1214E-14
31.13	0.1257E-14
32.03	0.1298E-14
32.95	0.1340E-14
33.89	0.1382E-14
34.83	0.1426E-14
35.79	0.1470E-14
36.77	0.1515E-14
37.75	0.1561E-14
38.75	0.1608E-14
39.77	0.1649E-14
40.79	0.1697E-14
41.83	0.1745E-14
42.89	0.1795E-14
43.95	0.1845E-14
45.03	0.1895E-14
46.13	0.1946E-14
47.23	0.1998E-14
48.36	0.2049E-14
49.49	0.2105E-14
50.64	0.2157E-14
51.80	0.2210E-14
52.97	0.2262E-14
54.16	0.2315E-14
55.36	0.2367E-14
56.58	0.2419E-14
57.81	0.2471E-14
59.05	0.2522E-14
60.30	0.2573E-14
61.57	0.2623E-14
62.85	0.2677E-14
64.15	0.2725E-14
65.46	0.2772E-14
66.78	0.2818E-14
68.11	0.2863E-14
69.46	0.2907E-14
70.83	0.2949E-14
72.20	0.2990E-14
73.59	0.3030E-14
74.99	0.3068E-14
76.41	0.3105E-14
77.84	0.3131E-14
79.28	0.3165E-14
80.74	0.3196E-14
82.21	0.3226E-14
83.69	0.3254E-14
85.19	0.3281E-14
86.70	0.3306E-14
88.22	0.3329E-14
89.76	0.3351E-14
91.31	0.3370E-14
92.87	0.3388E-14
94.45	0.3405E-14
96.04	0.3420E-14
97.64	0.3434E-14
99.26	0.3445E-14
100.9	0.3456E-14
102.5	0.3464E-14
104.2	0.3472E-14
105.9	0.3478E-14
107.6	0.3482E-14
109.2	0.3486E-14
111.0	0.3488E-14
112.7	0.3488E-14
114.4	0.3488E-14
116.2	0.3487E-14
117.9	0.3484E-14
119.7	0.3489E-14
121.5	0.3484E-14
123.3	0.3478E-14
125.1	0.3472E-14
127.0	0.3465E-14
128.8	0.3456E-14
130.7	0.3448E-14
132.5	0.3438E-14
134.4	0.3428E-14
136.3	0.3417E-14
138.2	0.3406E-14
140.2	0.3394E-14
142.1	0.3381E-14
144.1	0.3368E-14
146.0	0.3343E-14
148.0	0.3330E-14
150.0	0.3316E-14
 
 
C3    N2    Excitation    0.29 eV                               
E/N (Td)	Rate coefficient (m3/s)
1.000	0.2269E-17
1.007	0.2293E-17
1.027	0.2366E-17
1.060	0.2490E-17
1.107	0.2668E-17
1.168	0.2905E-17
1.242	0.3211E-17
1.329	0.3603E-17
1.430	0.4108E-17
1.544	0.4771E-17
1.671	0.5658E-17
1.812	0.6861E-17
1.966	0.8495E-17
2.134	0.1067E-16
2.315	0.1356E-16
2.510	0.1727E-16
2.718	0.2184E-16
2.940	0.2730E-16
3.174	0.3359E-16
3.423	0.4059E-16
3.685	0.4813E-16
3.960	0.5604E-16
4.248	0.6413E-16
4.550	0.7222E-16
4.866	0.8016E-16
5.195	0.8783E-16
5.537	0.9529E-16
5.893	0.1022E-15
6.262	0.1086E-15
6.644	0.1145E-15
7.040	0.1199E-15
7.450	0.1249E-15
7.872	0.1294E-15
8.309	0.1334E-15
8.758	0.1371E-15
9.221	0.1404E-15
9.698	0.1432E-15
10.19	0.1458E-15
10.69	0.1481E-15
11.21	0.1502E-15
11.74	0.1520E-15
12.28	0.1536E-15
12.84	0.1550E-15
13.41	0.1563E-15
13.99	0.1574E-15
14.59	0.1582E-15
15.20	0.1590E-15
15.83	0.1597E-15
16.46	0.1604E-15
17.11	0.1608E-15
17.78	0.1612E-15
18.46	0.1615E-15
19.15	0.1616E-15
19.85	0.1618E-15
20.57	0.1619E-15
21.30	0.1619E-15
22.05	0.1619E-15
22.81	0.1618E-15
23.58	0.1617E-15
24.36	0.1617E-15
25.16	0.1615E-15
25.97	0.1613E-15
26.80	0.1610E-15
27.64	0.1608E-15
28.49	0.1605E-15
29.36	0.1602E-15
30.23	0.1599E-15
31.13	0.1593E-15
32.03	0.1590E-15
32.95	0.1586E-15
33.89	0.1583E-15
34.83	0.1580E-15
35.79	0.1576E-15
36.77	0.1573E-15
37.75	0.1570E-15
38.75	0.1567E-15
39.77	0.1567E-15
40.79	0.1565E-15
41.83	0.1563E-15
42.89	0.1561E-15
43.95	0.1560E-15
45.03	0.1559E-15
46.13	0.1558E-15
47.23	0.1558E-15
48.36	0.1559E-15
49.49	0.1559E-15
50.64	0.1561E-15
51.80	0.1564E-15
52.97	0.1568E-15
54.16	0.1572E-15
55.36	0.1578E-15
56.58	0.1584E-15
57.81	0.1591E-15
59.05	0.1600E-15
60.30	0.1609E-15
61.57	0.1619E-15
62.85	0.1632E-15
64.15	0.1645E-15
65.46	0.1658E-15
66.78	0.1673E-15
68.11	0.1689E-15
69.46	0.1706E-15
70.83	0.1723E-15
72.20	0.1742E-15
73.59	0.1762E-15
74.99	0.1783E-15
76.41	0.1805E-15
77.84	0.1826E-15
79.28	0.1850E-15
80.74	0.1875E-15
82.21	0.1900E-15
83.69	0.1926E-15
85.19	0.1953E-15
86.70	0.1981E-15
88.22	0.2009E-15
89.76	0.2038E-15
91.31	0.2068E-15
92.87	0.2098E-15
94.45	0.2129E-15
96.04	0.2160E-15
97.64	0.2191E-15
99.26	0.2223E-15
100.9	0.2255E-15
102.5	0.2287E-15
104.2	0.2320E-15
105.9	0.2353E-15
107.6	0.2386E-15
109.2	0.2419E-15
111.0	0.2453E-15
112.7	0.2486E-15
114.4	0.2519E-15
116.2	0.2553E-15
117.9	0.2586E-15
119.7	0.2620E-15
121.5	0.2653E-15
123.3	0.2686E-15
125.1	0.2720E-15
127.0	0.2753E-15
128.8	0.2786E-15
130.7	0.2819E-15
132.5	0.2851E-15
134.4	0.2884E-15
136.3	0.2916E-15
138.2	0.2949E-15
140.2	0.2981E-15
142.1	0.3013E-15
144.1	0.3044E-15
146.0	0.3076E-15
148.0	0.3107E-15
150.0	0.3139E-15
 
 
C4    N2    Excitation    0.29 eV                               
E/N (Td)	Rate coefficient (m3/s)
1.000	0.1113E-22
1.007	0.1265E-22
1.027	0.1840E-22
1.060	0.3334E-22
1.107	0.7224E-22
1.168	0.1787E-21
1.242	0.4815E-21
1.329	0.1353E-20
1.430	0.3824E-20
1.544	0.1057E-19
1.671	0.2803E-19
1.812	0.7024E-19
1.966	0.1651E-18
2.134	0.3615E-18
2.315	0.7425E-18
2.510	0.1427E-17
2.718	0.2575E-17
2.940	0.4379E-17
3.174	0.7058E-17
3.423	0.1083E-16
3.685	0.1591E-16
3.960	0.2247E-16
4.248	0.3067E-16
4.550	0.4060E-16
4.866	0.5233E-16
5.195	0.6590E-16
5.537	0.8144E-16
5.893	0.9865E-16
6.262	0.1176E-15
6.644	0.1384E-15
7.040	0.1607E-15
7.450	0.1847E-15
7.872	0.2103E-15
8.309	0.2373E-15
8.758	0.2658E-15
9.221	0.2956E-15
9.698	0.3264E-15
10.19	0.3588E-15
10.69	0.3924E-15
11.21	0.4272E-15
11.74	0.4630E-15
12.28	0.4999E-15
12.84	0.5382E-15
13.41	0.5766E-15
13.99	0.6155E-15
14.59	0.6572E-15
15.20	0.6990E-15
15.83	0.7416E-15
16.46	0.7826E-15
17.11	0.8268E-15
17.78	0.8718E-15
18.46	0.9176E-15
19.15	0.9643E-15
19.85	0.1015E-14
20.57	0.1063E-14
21.30	0.1112E-14
22.05	0.1162E-14
22.81	0.1213E-14
23.58	0.1264E-14
24.36	0.1310E-14
25.16	0.1363E-14
25.97	0.1417E-14
26.80	0.1471E-14
27.64	0.1526E-14
28.49	0.1582E-14
29.36	0.1639E-14
30.23	0.1696E-14
31.13	0.1762E-14
32.03	0.1821E-14
32.95	0.1881E-14
33.89	0.1942E-14
34.83	0.2003E-14
35.79	0.2065E-14
36.77	0.2128E-14
37.75	0.2191E-14
38.75	0.2255E-14
39.77	0.2311E-14
40.79	0.2376E-14
41.83	0.2441E-14
42.89	0.2506E-14
43.95	0.2572E-14
45.03	0.2637E-14
46.13	0.2703E-14
47.23	0.2769E-14
48.36	0.2835E-14
49.49	0.2899E-14
50.64	0.2965E-14
51.80	0.3031E-14
52.97	0.3096E-14
54.16	0.3160E-14
55.36	0.3224E-14
56.58	0.3287E-14
57.81	0.3349E-14
59.05	0.3410E-14
60.30	0.3469E-14
61.57	0.3528E-14
62.85	0.3596E-14
64.15	0.3651E-14
65.46	0.3705E-14
66.78	0.3757E-14
68.11	0.3808E-14
69.46	0.3856E-14
70.83	0.3903E-14
72.20	0.3948E-14
73.59	0.3990E-14
74.99	0.4031E-14
76.41	0.4069E-14
77.84	0.4102E-14
79.28	0.4136E-14
80.74	0.4167E-14
82.21	0.4197E-14
83.69	0.4224E-14
85.19	0.4249E-14
86.70	0.4272E-14
88.22	0.4293E-14
89.76	0.4312E-14
91.31	0.4328E-14
92.87	0.4343E-14
94.45	0.4355E-14
96.04	0.4361E-14
97.64	0.4370E-14
99.26	0.4377E-14
100.9	0.4382E-14
102.5	0.4385E-14
104.2	0.4387E-14
105.9	0.4387E-14
107.6	0.4386E-14
109.2	0.4383E-14
111.0	0.4379E-14
112.7	0.4373E-14
114.4	0.4366E-14
116.2	0.4358E-14
117.9	0.4348E-14
119.7	0.4350E-14
121.5	0.4338E-14
123.3	0.4325E-14
125.1	0.4311E-14
127.0	0.4296E-14
128.8	0.4281E-14
130.7	0.4265E-14
132.5	0.4248E-14
134.4	0.4230E-14
136.3	0.4212E-14
138.2	0.4194E-14
140.2	0.4174E-14
142.1	0.4155E-14
144.1	0.4134E-14
146.0	0.4103E-14
148.0	0.4082E-14
150.0	0.4061E-14
 
 
C5    N2    Excitation    0.59 eV                               
E/N (Td)	Rate coefficient (m3/s)
1.000	0.1191E-25
1.007	0.1391E-25
1.027	0.2192E-25
1.060	0.4518E-25
1.107	0.1163E-24
1.168	0.3545E-24
1.242	0.1211E-23
1.329	0.4404E-23
1.430	0.1633E-22
1.544	0.5956E-22
1.671	0.2082E-21
1.812	0.6844E-21
1.966	0.2090E-20
2.134	0.5877E-20
2.315	0.1525E-19
2.510	0.3648E-19
2.718	0.8065E-19
2.940	0.1656E-18
3.174	0.3173E-18
3.423	0.5711E-18
3.685	0.9713E-18
3.960	0.1570E-17
4.248	0.2425E-17
4.550	0.3597E-17
4.866	0.5150E-17
5.195	0.7144E-17
5.537	0.9652E-17
5.893	0.1270E-16
6.262	0.1636E-16
6.644	0.2067E-16
7.040	0.2567E-16
7.450	0.3141E-16
7.872	0.3791E-16
8.309	0.4521E-16
8.758	0.5333E-16
9.221	0.6230E-16
9.698	0.7205E-16
10.19	0.8277E-16
10.69	0.9439E-16
11.21	0.1069E-15
11.74	0.1204E-15
12.28	0.1347E-15
12.84	0.1501E-15
13.41	0.1659E-15
13.99	0.1827E-15
14.59	0.2013E-15
15.20	0.2202E-15
15.83	0.2401E-15
16.46	0.2594E-15
17.11	0.2809E-15
17.78	0.3034E-15
18.46	0.3267E-15
19.15	0.3508E-15
19.85	0.3765E-15
20.57	0.4023E-15
21.30	0.4288E-15
22.05	0.4561E-15
22.81	0.4842E-15
23.58	0.5131E-15
24.36	0.5409E-15
25.16	0.5713E-15
25.97	0.6023E-15
26.80	0.6342E-15
27.64	0.6667E-15
28.49	0.6999E-15
29.36	0.7338E-15
30.23	0.7684E-15
31.13	0.8073E-15
32.03	0.8433E-15
32.95	0.8800E-15
33.89	0.9173E-15
34.83	0.9552E-15
35.79	0.9937E-15
36.77	0.1033E-14
37.75	0.1072E-14
38.75	0.1112E-14
39.77	0.1144E-14
40.79	0.1185E-14
41.83	0.1226E-14
42.89	0.1268E-14
43.95	0.1309E-14
45.03	0.1351E-14
46.13	0.1394E-14
47.23	0.1436E-14
48.36	0.1479E-14
49.49	0.1526E-14
50.64	0.1569E-14
51.80	0.1611E-14
52.97	0.1653E-14
54.16	0.1696E-14
55.36	0.1737E-14
56.58	0.1779E-14
57.81	0.1820E-14
59.05	0.1860E-14
60.30	0.1900E-14
61.57	0.1939E-14
62.85	0.1984E-14
64.15	0.2021E-14
65.46	0.2057E-14
66.78	0.2092E-14
68.11	0.2127E-14
69.46	0.2160E-14
70.83	0.2192E-14
72.20	0.2222E-14
73.59	0.2252E-14
74.99	0.2280E-14
76.41	0.2307E-14
77.84	0.2323E-14
79.28	0.2347E-14
80.74	0.2370E-14
82.21	0.2391E-14
83.69	0.2411E-14
85.19	0.2430E-14
86.70	0.2448E-14
88.22	0.2464E-14
89.76	0.2478E-14
91.31	0.2492E-14
92.87	0.2504E-14
94.45	0.2515E-14
96.04	0.2524E-14
97.64	0.2532E-14
99.26	0.2539E-14
100.9	0.2545E-14
102.5	0.2550E-14
104.2	0.2554E-14
105.9	0.2557E-14
107.6	0.2558E-14
109.2	0.2559E-14
111.0	0.2559E-14
112.7	0.2558E-14
114.4	0.2556E-14
116.2	0.2553E-14
117.9	0.2549E-14
119.7	0.2555E-14
121.5	0.2550E-14
123.3	0.2544E-14
125.1	0.2537E-14
127.0	0.2530E-14
128.8	0.2523E-14
130.7	0.2514E-14
132.5	0.2506E-14
134.4	0.2497E-14
136.3	0.2487E-14
138.2	0.2477E-14
140.2	0.2467E-14
142.1	0.2456E-14
144.1	0.2445E-14
146.0	0.2424E-14
148.0	0.2413E-14
150.0	0.2401E-14
 
 
C6    N2    Excitation    0.88 eV                               
E/N (Td)	Rate coefficient (m3/s)
1.000	0.4207E-30
1.007	0.5249E-30
1.027	0.1003E-29
1.060	0.2812E-29
1.107	0.1080E-28
1.168	0.5265E-28
1.242	0.3002E-27
1.329	0.1859E-26
1.430	0.1173E-25
1.544	0.7172E-25
1.671	0.4095E-24
1.812	0.2129E-23
1.966	0.9929E-23
2.134	0.4165E-22
2.315	0.1534E-21
2.510	0.5043E-21
2.718	0.1487E-20
2.940	0.3963E-20
3.174	0.9622E-20
3.423	0.2146E-19
3.685	0.4433E-19
3.960	0.8551E-19
4.248	0.1552E-18
4.550	0.2668E-18
4.866	0.4371E-18
5.195	0.6865E-18
5.537	0.1041E-17
5.893	0.1523E-17
6.262	0.2162E-17
6.644	0.2991E-17
7.040	0.4042E-17
7.450	0.5351E-17
7.872	0.6954E-17
8.309	0.8886E-17
8.758	0.1119E-16
9.221	0.1389E-16
9.698	0.1701E-16
10.19	0.2064E-16
10.69	0.2478E-16
11.21	0.2947E-16
11.74	0.3475E-16
12.28	0.4063E-16
12.84	0.4723E-16
13.41	0.5422E-16
13.99	0.6217E-16
14.59	0.7098E-16
15.20	0.8034E-16
15.83	0.9046E-16
16.46	0.1010E-15
17.11	0.1127E-15
17.78	0.1251E-15
18.46	0.1384E-15
19.15	0.1524E-15
19.85	0.1670E-15
20.57	0.1825E-15
21.30	0.1989E-15
22.05	0.2161E-15
22.81	0.2341E-15
23.58	0.2528E-15
24.36	0.2719E-15
25.16	0.2922E-15
25.97	0.3133E-15
26.80	0.3351E-15
27.64	0.3576E-15
28.49	0.3809E-15
29.36	0.4048E-15
30.23	0.4294E-15
31.13	0.4577E-15
32.03	0.4837E-15
32.95	0.5103E-15
33.89	0.5375E-15
34.83	0.5653E-15
35.79	0.5936E-15
36.77	0.6224E-15
37.75	0.6517E-15
38.75	0.6815E-15
39.77	0.7033E-15
40.79	0.7337E-15
41.83	0.7644E-15
42.89	0.7954E-15
43.95	0.8267E-15
45.03	0.8583E-15
46.13	0.8900E-15
47.23	0.9218E-15
48.36	0.9537E-15
49.49	0.9898E-15
50.64	0.1022E-14
51.80	0.1054E-14
52.97	0.1085E-14
54.16	0.1117E-14
55.36	0.1148E-14
56.58	0.1179E-14
57.81	0.1210E-14
59.05	0.1240E-14
60.30	0.1269E-14
61.57	0.1298E-14
62.85	0.1330E-14
64.15	0.1358E-14
65.46	0.1385E-14
66.78	0.1411E-14
68.11	0.1436E-14
69.46	0.1461E-14
70.83	0.1484E-14
72.20	0.1507E-14
73.59	0.1529E-14
74.99	0.1550E-14
76.41	0.1569E-14
77.84	0.1579E-14
79.28	0.1597E-14
80.74	0.1613E-14
82.21	0.1629E-14
83.69	0.1644E-14
85.19	0.1658E-14
86.70	0.1670E-14
88.22	0.1682E-14
89.76	0.1693E-14
91.31	0.1702E-14
92.87	0.1711E-14
94.45	0.1719E-14
96.04	0.1729E-14
97.64	0.1735E-14
99.26	0.1740E-14
100.9	0.1744E-14
102.5	0.1748E-14
104.2	0.1750E-14
105.9	0.1752E-14
107.6	0.1753E-14
109.2	0.1754E-14
111.0	0.1754E-14
112.7	0.1753E-14
114.4	0.1751E-14
116.2	0.1749E-14
117.9	0.1746E-14
119.7	0.1751E-14
121.5	0.1747E-14
123.3	0.1742E-14
125.1	0.1738E-14
127.0	0.1732E-14
128.8	0.1727E-14
130.7	0.1721E-14
132.5	0.1715E-14
134.4	0.1708E-14
136.3	0.1701E-14
138.2	0.1694E-14
140.2	0.1686E-14
142.1	0.1679E-14
144.1	0.1671E-14
146.0	0.1653E-14
148.0	0.1645E-14
150.0	0.1637E-14
 
 
C7    N2    Excitation    1.17 eV                               
E/N (Td)	Rate coefficient (m3/s)
1.000	0.000
1.007	0.000
1.027	0.000
1.060	0.000
1.107	0.000
1.168	0.000
1.242	0.000
1.329	0.000
1.430	0.000
1.544	0.000
1.671	0.000
1.812	0.000
1.966	0.000
2.134	0.2157E-26
2.315	0.1358E-25
2.510	0.7403E-25
2.718	0.3511E-24
2.940	0.1458E-23
3.174	0.5354E-23
3.423	0.1755E-22
3.685	0.5186E-22
3.960	0.1396E-21
4.248	0.3458E-21
4.550	0.7949E-21
4.866	0.1710E-20
5.195	0.3468E-20
5.537	0.6803E-20
5.893	0.1246E-19
6.262	0.2191E-19
6.644	0.3712E-19
7.040	0.6080E-19
7.450	0.9663E-19
7.872	0.1494E-18
8.309	0.2251E-18
8.758	0.3314E-18
9.221	0.4774E-18
9.698	0.6771E-18
10.19	0.9380E-18
10.69	0.1277E-17
11.21	0.1711E-17
11.74	0.2258E-17
12.28	0.2949E-17
12.84	0.3812E-17
13.41	0.4862E-17
13.99	0.6171E-17
14.59	0.7739E-17
15.20	0.9457E-17
15.83	0.1145E-16
16.46	0.1385E-16
17.11	0.1648E-16
17.78	0.1946E-16
18.46	0.2282E-16
19.15	0.2659E-16
19.85	0.3067E-16
20.57	0.3530E-16
21.30	0.4039E-16
22.05	0.4598E-16
22.81	0.5208E-16
23.58	0.5870E-16
24.36	0.6617E-16
25.16	0.7390E-16
25.97	0.8221E-16
26.80	0.9109E-16
27.64	0.1006E-15
28.49	0.1106E-15
29.36	0.1213E-15
30.23	0.1326E-15
31.13	0.1452E-15
32.03	0.1577E-15
32.95	0.1708E-15
33.89	0.1846E-15
34.83	0.1989E-15
35.79	0.2138E-15
36.77	0.2293E-15
37.75	0.2453E-15
38.75	0.2619E-15
39.77	0.2751E-15
40.79	0.2926E-15
41.83	0.3106E-15
42.89	0.3291E-15
43.95	0.3480E-15
45.03	0.3674E-15
46.13	0.3871E-15
47.23	0.4072E-15
48.36	0.4276E-15
49.49	0.4508E-15
50.64	0.4718E-15
51.80	0.4930E-15
52.97	0.5144E-15
54.16	0.5359E-15
55.36	0.5575E-15
56.58	0.5790E-15
57.81	0.6006E-15
59.05	0.6221E-15
60.30	0.6435E-15
61.57	0.6647E-15
62.85	0.6869E-15
64.15	0.7077E-15
65.46	0.7281E-15
66.78	0.7483E-15
68.11	0.7680E-15
69.46	0.7874E-15
70.83	0.8063E-15
72.20	0.8247E-15
73.59	0.8426E-15
74.99	0.8599E-15
76.41	0.8767E-15
77.84	0.8883E-15
79.28	0.9039E-15
80.74	0.9189E-15
82.21	0.9332E-15
83.69	0.9469E-15
85.19	0.9600E-15
86.70	0.9724E-15
88.22	0.9841E-15
89.76	0.9952E-15
91.31	0.1006E-14
92.87	0.1015E-14
94.45	0.1024E-14
96.04	0.1036E-14
97.64	0.1044E-14
99.26	0.1051E-14
100.9	0.1057E-14
102.5	0.1063E-14
104.2	0.1069E-14
105.9	0.1073E-14
107.6	0.1078E-14
109.2	0.1081E-14
111.0	0.1084E-14
112.7	0.1087E-14
114.4	0.1089E-14
116.2	0.1091E-14
117.9	0.1092E-14
119.7	0.1095E-14
121.5	0.1095E-14
123.3	0.1095E-14
125.1	0.1095E-14
127.0	0.1094E-14
128.8	0.1093E-14
130.7	0.1092E-14
132.5	0.1090E-14
134.4	0.1088E-14
136.3	0.1086E-14
138.2	0.1084E-14
140.2	0.1081E-14
142.1	0.1078E-14
144.1	0.1075E-14
146.0	0.1065E-14
148.0	0.1062E-14
150.0	0.1058E-14
 
 
C8    N2    Excitation    1.47 eV                               
E/N (Td)	Rate coefficient (m3/s)
1.000	0.000
1.007	0.000
1.027	0.000
1.060	0.000
1.107	0.000
1.168	0.000
1.242	0.000
1.329	0.000
1.430	0.000
1.544	0.000
1.671	0.000
1.812	0.000
1.966	0.000
2.134	0.6660E-30
2.315	0.7830E-29
2.510	0.7721E-28
2.718	0.6395E-27
2.940	0.4476E-26
3.174	0.2669E-25
3.423	0.1370E-24
3.685	0.6124E-24
3.960	0.2409E-23
4.248	0.8435E-23
4.550	0.2657E-22
4.866	0.7601E-22
5.195	0.1994E-21
5.537	0.5044E-21
5.893	0.1132E-20
6.262	0.2387E-20
6.644	0.4755E-20
7.040	0.8998E-20
7.450	0.1626E-19
7.872	0.2816E-19
8.309	0.4694E-19
8.758	0.7558E-19
9.221	0.1179E-18
9.698	0.1802E-18
10.19	0.2658E-18
10.69	0.3827E-18
11.21	0.5392E-18
11.74	0.7447E-18
12.28	0.1016E-17
12.84	0.1366E-17
13.41	0.1815E-17
13.99	0.2383E-17
14.59	0.3089E-17
15.20	0.3869E-17
15.83	0.4796E-17
16.46	0.5947E-17
17.11	0.7222E-17
17.78	0.8695E-17
18.46	0.1039E-16
19.15	0.1232E-16
19.85	0.1447E-16
20.57	0.1692E-16
21.30	0.1966E-16
22.05	0.2272E-16
22.81	0.2610E-16
23.58	0.2983E-16
24.36	0.3406E-16
25.16	0.3854E-16
25.97	0.4340E-16
26.80	0.4868E-16
27.64	0.5438E-16
28.49	0.6051E-16
29.36	0.6709E-16
30.23	0.7413E-16
31.13	0.8203E-16
32.03	0.9001E-16
32.95	0.9847E-16
33.89	0.1074E-15
34.83	0.1168E-15
35.79	0.1267E-15
36.77	0.1371E-15
37.75	0.1480E-15
38.75	0.1594E-15
39.77	0.1691E-15
40.79	0.1813E-15
41.83	0.1939E-15
42.89	0.2070E-15
43.95	0.2205E-15
45.03	0.2345E-15
46.13	0.2488E-15
47.23	0.2636E-15
48.36	0.2786E-15
49.49	0.2961E-15
